"Time shift (s)","Autocorrelation of sum"
0.000000000E0,1.768642738E-1
2.001373000E-2,1.760840734E-1
4.201266100E-2,1.741478357E-1
6.202599100E-2,1.711725673E-1
8.203335400E-2,1.672420191E-1
1.020516510E-1,1.623613198E-1
1.220718130E-1,1.565119615E-1
1.420925430E-1,1.496775166E-1
1.621016380E-1,1.419209673E-1
1.840962340E-1,1.333084395E-1
2.041076630E-1,1.239571791E-1
2.241211590E-1,1.139162879E-1
2.441349550E-1,1.032663173E-1
2.641563850E-1,9.210813244E-2
2.841752810E-1,8.049798618E-2
3.042017760E-1,6.848510362E-2
3.242089720E-1,5.606588045E-2
3.442227020E-1,4.331074625E-2
3.642250990E-1,3.034379069E-2
3.842418280E-1,1.733129599E-2
4.042626920E-1,4.361248205E-3
4.242776210E-1,-8.556692295E-3
4.442894840E-1,-2.143818993E-2
4.642962800E-1,-3.422790126E-2
4.843112100E-1,-4.683977928E-2
5.043208060E-1,-5.914104039E-2
5.243317690E-1,-7.104424814E-2
5.443465000E-1,-8.250190450E-2
5.643599300E-1,-9.347717430E-2
5.843782930E-1,-1.039327130E-1
6.043909230E-1,-1.138611820E-1
6.244071530E-1,-1.231922189E-1
6.444161160E-1,-1.318778204E-1
6.644300120E-1,-1.398281318E-1
6.844513090E-1,-1.469629468E-1
7.044646730E-1,-1.532078757E-1
7.244781020E-1,-1.585691799E-1
7.444865320E-1,-1.630729373E-1
7.644958950E-1,-1.667418535E-1
7.845080240E-1,-1.695088388E-1
8.045194540E-1,-1.712822608E-1
8.245384160E-1,-1.719987073E-1
8.445483800E-1,-1.716401072E-1
8.645636760E-1,-1.702529364E-1
8.845759050E-1,-1.678780812E-1
9.045986340E-1,-1.645380956E-1
9.246153290E-1,-1.601932177E-1
9.446351260E-1,-1.548615798E-1
9.646377560E-1,-1.485619917E-1
9.846450200E-1,-1.413287894E-1
1.004657684E0,-1.332050078E-1
1.024684680E0,-1.242169106E-1
1.044702976E0,-1.144398286E-1
1.064707439E0,-1.039576579E-1
1.084720302E0,-9.286292707E-2
1.104738731E0,-8.116126410E-2
1.124756227E0,-6.887443048E-2
1.144762257E0,-5.608427492E-2
1.164771187E0,-4.292953854E-2
1.184784283E0,-2.958080189E-2
1.204796447E0,-1.613718205E-2
1.224805943E0,-2.634231838E-3
1.244818740E0,1.091286221E-2
1.264827970E0,2.444590752E-2
1.284837566E0,3.784914227E-2
1.304845995E0,5.098574862E-2
1.324858890E0,6.370685338E-2
1.344875487E0,7.596146520E-2
1.364893783E0,8.768340259E-2
1.384916679E0,9.881876416E-2
1.404933608E0,1.093209822E-1
1.424946672E0,1.191623731E-1
1.444953102E0,1.282928764E-1
1.464970333E0,1.366335576E-1
1.484983029E0,1.440881315E-1
1.504999724E0,1.505612710E-1
1.525009422E0,1.560807342E-1
1.545018485E0,1.606941915E-1
1.565035715E0,1.644192308E-1
1.585051111E0,1.672321844E-1
1.605066575E0,1.690491277E-1
1.625074138E0,1.698262084E-1
1.645078500E0,1.696016990E-1
1.665093498E0,1.684196769E-1
1.685104095E0,1.663164971E-1
1.705128258E0,1.633116808E-1
1.725139322E0,1.593933676E-1
1.745151851E0,1.545677942E-1
1.765161047E0,1.488614432E-1
1.785179343E0,1.423248833E-1
1.805195540E0,1.349615821E-1
1.825206170E0,1.268255463E-1
1.846129854E0,1.179792353E-1
1.866146050E0,1.084977914E-1
1.886157314E0,9.842814446E-2
1.906181344E0,8.777018137E-2
1.926189774E0,7.653525070E-2
1.946202570E0,6.478940030E-2
1.966205567E0,5.263483585E-2
1.986221496E0,4.017462921E-2
2.006241793E0,2.749118943E-2
2.026258855E0,1.463193246E-2
2.046274251E0,1.647887754E-3
2.066286914E0,-1.139441811E-2
2.086305810E0,-2.443045276E-2
2.106320574E0,-3.737587568E-2
2.126327337E0,-5.016948185E-2
2.146330199E0,-6.271321229E-2
2.166342562E0,-7.490596075E-2
2.186361525E0,-8.664364622E-2
2.206377753E0,-9.786838769E-2
2.226389882E0,-1.085542487E-1
2.246404411E0,-1.186509505E-1
2.266422042E0,-1.280772262E-1
2.286436471E0,-1.367346987E-1
2.306448200E0,-1.445280837E-1
2.326455729E0,-1.514072415E-1
2.346464691E0,-1.573736909E-1
2.366473153E0,-1.624157187E-1
2.386486016E0,-1.664910825E-1
2.406499446E0,-1.695348238E-1
2.426512775E0,-1.715000602E-1
2.446526171E0,-1.723848382E-1
2.466539634E0,-1.721734980E-1
2.486557530E0,-1.708815684E-1
2.506575793E0,-1.685313548E-1
2.526595823E0,-1.651624302E-1
2.546609852E0,-1.608155440E-1
2.566624848E0,-1.555195986E-1
2.586634044E0,-1.492589606E-1
2.606642340E0,-1.420377051E-1
2.626649403E0,-1.339045826E-1
2.646666499E0,-1.249702866E-1
2.666680029E0,-1.153393116E-1
2.686698891E0,-1.051121285E-1
2.706706287E0,-9.432456444E-2
2.726719683E0,-8.298611961E-2
2.746727646E0,-7.115166951E-2
2.766740942E0,-5.889527410E-2
2.786754671E0,-4.629985040E-2
2.806768000E0,-3.346839238E-2
2.826781530E0,-2.048875188E-2
2.846796659E0,-7.466684480E-3
2.866813655E0,5.494208367E-3
2.886835784E0,1.833446814E-2
2.906859380E0,3.103809863E-2
2.926879710E0,4.358062122E-2
2.946888473E0,5.588660319E-2
2.966889103E0,6.783743692E-2
2.986896665E0,7.932919010E-2
3.006908328E0,9.026964041E-2
3.026922390E0,1.006527542E-1
3.046935819E0,1.104906309E-1
3.066946848E0,1.197247956E-1
3.086960244E0,1.282995374E-1
3.106970973E0,1.361332551E-1
3.126984536E0,1.431451388E-1
3.146997932E0,1.493036809E-1
3.167014995E0,1.546032705E-1
3.187028290E0,1.590375725E-1
3.207041752E0,1.626131533E-1
3.227050147E0,1.653198846E-1
3.247063610E0,1.671382175E-1
3.267077039E0,1.679808684E-1
3.287090035E0,1.677896222E-1
3.307103498E0,1.665588263E-1
3.327116961E0,1.643264553E-1
3.347130423E0,1.611848242E-1
3.367143786E0,1.571959983E-1
3.387157182E0,1.523218233E-1
3.407170544E0,1.465131903E-1
3.427183907E0,1.397501589E-1
3.447198536E0,1.320760438E-1
3.467211932E0,1.235538118E-1
3.487225495E0,1.142873767E-1
3.507237591E0,1.043297458E-1
3.527250921E0,9.376523711E-2
3.547265083E0,8.262534113E-2
3.567278614E0,7.096263564E-2
3.587292144E0,5.881451663E-2
3.607304807E0,4.622175024E-2
3.627317936E0,3.329101243E-2
3.647331299E0,2.017608927E-2
3.667344695E0,7.017068396E-3
3.687358357E0,-6.133626420E-3
3.707371886E0,-1.926777481E-2
3.727385283E0,-3.233790051E-2
3.747398813E0,-4.528104447E-2
3.767412342E0,-5.794852265E-2
3.787425771E0,-7.018397489E-2
3.807439034E0,-8.192152216E-2
3.827452963E0,-9.308790001E-2
3.847466459E0,-1.036718387E-1
3.867480022E0,-1.136802263E-1
3.887492852E0,-1.230441689E-1
3.907506247E0,-1.316852376E-1
3.927521344E0,-1.395117587E-1
3.947534640E0,-1.464269964E-1
3.967549103E0,-1.523585479E-1
3.987565200E0,-1.572993093E-1
4.007585596E0,-1.613113707E-1
4.027601859E0,-1.644304542E-1
4.047617521E0,-1.666439377E-1
4.067623183E0,-1.678727168E-1
4.087638379E0,-1.680522521E-1
4.107651475E0,-1.671550636E-1
4.127666071E0,-1.652314262E-1
4.147673534E0,-1.623596578E-1
4.167682432E0,-1.586146952E-1
4.187699895E0,-1.540016795E-1
4.207713325E0,-1.485228378E-1
4.227725054E0,-1.421911149E-1
4.247740783E0,-1.350227558E-1
4.267761714E0,-1.270867224E-1
4.287780909E0,-1.184386801E-1
4.307792505E0,-1.091527531E-1
4.327798801E0,-9.929229719E-2
4.347812863E0,-8.891531998E-2
4.367835526E0,-7.802883288E-2
4.387854489E0,-6.664935222E-2
4.407861485E0,-5.482521949E-2
4.429862214E0,-4.263936723E-2
4.449874176E0,-3.022815330E-2
4.469887572E0,-1.771134170E-2
4.489907368E0,-5.145458377E-3
4.509917230E0,7.485530373E-3
4.529935827E0,2.016872181E-2
4.549942823E0,3.282071382E-2
4.569955619E0,4.535212088E-2
4.589963882E0,5.763627961E-2
4.609977379E0,6.956586384E-2
4.629990708E0,8.109091704E-2
4.650009971E0,9.214368984E-2
4.670023200E0,1.026901613E-1
4.690036963E0,1.127106646E-1
4.710051058E0,1.221669869E-1
4.730064588E0,1.309432914E-1
4.750077617E0,1.389571282E-1
4.770090346E0,1.460953803E-1
4.790103842E0,1.523059183E-1
4.810117439E0,1.576041671E-1
4.830124935E0,1.620073739E-1
4.850139031E0,1.654816133E-1
4.870152494E0,1.679761335E-1
4.890165990E0,1.693974030E-1
4.910178787E0,1.697043220E-1
4.930200616E0,1.689222706E-1
4.950218246E0,1.671188605E-1
4.970234308E0,1.643332778E-1
4.990241471E0,1.605482134E-1
